線路名稱,1140814NKLDN,線路行別,下行,報表名稱,原始數據報表,測量人員,NoName
開始里程,101.40074920654297,結束里程,100.27225494384766,里程增減,里程減
波長,25米-3米波長,測量日期,2025.08.15,測量時刻,03:18:00

檢測點號,里程(Km),軌距(mm),超高(mm),俯仰角(rad),橫滾角(rad),航向角(rad),IMU幀號,編碼器脈衝號,左軌距點,右軌距點,左軌頂點,右軌頂點,
4467,100.272251578,0.05799439549446106,-32.67692565917969,0.004738165531307459,0.004950422793626785,0.17034122347831726,2732497,2143267910,26.700000762939453,-54,9.300000190734863,-25.5
4466,100.272499789,0.1813959926366806,-38.395790100097656,0.004709380213171244,0.005137848202139139,0.1713336557149887,2732440,2143268847,27.100000381469727,-82.30000305175781,8.399999618530273,-32.400001525878906
4465,100.272751179,0.3326976001262665,-29.969045639038086,0.004804557655006647,0.005022343248128891,0.17234474420547485,2732396,2143269796,27.700000762939453,-53.900001525878906,7.300000190734863,-24.899999618530273
4464,100.27299515200001,0.4549992084503174,-28.718856811523438,0.004736252594739199,0.005055803805589676,0.17322658002376556,2732360,2143270717,27.799999237060547,-53.5,6.599999904632568,-24.399999618530273
4463,100.273248397,0.5768008232116699,-27.6877498626709,0.004658477380871773,0.004943207371979952,0.17392243444919586,2732327,2143271673,28.100000381469727,-53.599998474121094,6.300000190734863,-23.5
4462,100.273492899,0.6984024047851562,-0.2578268051147461,0.0045175752602517605,0.004963155835866928,0.17479540407657623,2732298,2143272596,28.399999618530273,68.4000015258789,5.900000095367432,3.5
4461,100.273747998,0.39839935302734375,0.186492919921875,0.004664164502173662,0.004792700055986643,0.17543579638004303,2732270,2143273559,29.200000762939453,67.30000305175781,5.400000095367432,3.700000047683716
4460,100.27400097799999,0.49840545654296875,1.279868245124817,0.004641707055270672,0.00479059386998415,0.1762441098690033,2732244,2143274514,29.700000762939453,66.9000015258789,4.699999809265137,3.799999952316284
4459,100.274247335,0.6984024047851562,1.3782016038894653,0.00465740542858839,0.004853787831962109,0.17717227339744568,2732220,2143275444,29.799999237060547,67,4.400000095367432,3.9000000953674316
4458,100.274495281,0.09839630126953125,1.5260138511657715,0.004565159324556589,0.005019050557166338,0.17797136306762695,2732197,2143276380,29.700000762939453,66.5,4.800000190734863,4.099999904632568
4457,100.274741373,0.4983978271484375,2.179518699645996,0.004397463519126177,0.005121387541294098,0.17878557741641998,2732175,2143277309,29.5,67.0999984741211,5.099999904632568,4.900000095367432
4456,100.274996737,0.79840087890625,2.770474910736084,0.004618458915501833,0.005115358624607325,0.1794113665819168,2732153,2143278273,30.399999618530273,66.5,4.800000190734863,5.199999809265137
4455,100.275249186,0.8983993530273438,3.3842616081237793,0.004651790950447321,0.004857880529016256,0.1802917718887329,2732132,2143279226,30.600000381469727,66.4000015258789,3.299999952316284,4.699999809265137
4454,100.275496868,1.2983932495117188,4.081114292144775,0.0044911582954227924,0.004789113998413086,0.18144531548023224,2732112,2143280161,30.200000762939453,67.19999694824219,2.200000047683716,4.400000095367432
4453,100.275751172,0.198394775390625,3.824171543121338,0.004852178506553173,0.004617817234247923,0.1822734773159027,2732092,2143281121,29.600000381469727,66.69999694824219,2.299999952316284,4.5
4452,100.275998853,-0.00159454345703125,2.9333853721618652,0.0047860643826425076,0.004557292442768812,0.1831572949886322,2732073,2143282056,29.299999237060547,66.80000305175781,3,4.400000095367432
4451,100.276238323,-0.10160064697265625,1.8941431045532227,0.0048898737877607346,0.0043977960012853146,0.18397343158721924,2732055,2143282960,29.299999237060547,66.69999694824219,3.5999999046325684,4.199999809265137
4450,100.276496336,-0.10160064697265625,1.294538974761963,0.004874772392213345,0.004198058042675257,0.1848326027393341,2732036,2143283934,29.200000762939453,66.80000305175781,4,4.300000190734863
4449,100.27674560700001,-0.00159454345703125,0.7093610763549805,0.0049668881110847,0.00407460518181324,0.18563033640384674,2732018,2143284875,29.200000762939453,66.9000015258789,4.400000095367432,4.300000190734863
4448,100.276998056,-0.00159454345703125,0.4296298027038574,0.005021595396101475,0.004021450411528349,0.18661047518253326,2732000,2143285828,28.700000762939453,67.4000015258789,4.699999809265137,4.400000095367432
4447,100.277240175,0.0984039306640625,0.10155534744262695,0.005175856873393059,0.004069401416927576,0.1874053031206131,2731983,2143286742,28.399999618530273,67.80000305175781,5,4.300000190734863
4446,100.27749951199999,0.198394775390625,-0.019317150115966797,0.005198944825679064,0.004122153390198946,0.18842743337154388,2731965,2143287721,28.100000381469727,68.19999694824219,5.300000190734863,4.400000095367432
4445,100.277746929,0.39839935302734375,-0.15661239624023438,0.005017198622226715,0.004097290337085724,0.1893908977508545,2731948,2143288655,27.899999618530273,68.5999984741211,5.400000095367432,4.400000095367432
4444,100.277997259,0.79840087890625,-0.11317586898803711,0.00529279513284564,0.003926246426999569,0.19031722843647003,2731931,2143289600,28.100000381469727,68.80000305175781,5.300000190734863,4.599999904632568
4443,100.278249179,1.0984039306640625,-0.10897111892700195,0.005108908284455538,0.003995716571807861,0.1912803053855896,2731914,2143290551,27.899999618530273,69.30000305175781,5.699999809265137,4.900000095367432
4442,100.278487589,1.3983993530273438,-0.19293451309204102,0.00517220888286829,0.004073075018823147,0.1922215223312378,2731898,2143291451,27.5,70,5.699999809265137,4.699999809265137
4441,100.278741363,1.5984039306640625,-0.17585134506225586,0.004999571479856968,0.003951129037886858,0.1931656152009964,2731881,2143292409,27.899999618530273,69.80000305175781,5.699999809265137,4.900000095367432
4440,100.27899513700001,1.8983993530273438,-0.2998313903808594,0.004924383945763111,0.004001809284090996,0.1941443383693695,2731864,2143293367,27.799999237060547,70.19999694824219,5.900000095367432,4.900000095367432
4439,100.279248912,2.2983932495117188,-0.42181921005249023,0.0050620511174201965,0.0039871507324278355,0.19507038593292236,2731847,2143294325,28.200000762939453,70.19999694824219,6,4.900000095367432
4438,100.27948758699999,2.3983993530273438,-0.6240925788879395,0.0049332790076732635,0.004052302334457636,0.1959635466337204,2731831,2143295226,28.200000762939453,70.30000305175781,6.199999809265137,4.800000190734863
4437,100.279740831,2.3983993530273438,-0.8015036582946777,0.004811323247849941,0.004000694956630468,0.19675002992153168,2731814,2143296182,28.700000762939453,69.80000305175781,6.199999809265137,4.699999809265137
4436,100.279993546,2.3983993530273438,-0.8763489723205566,0.004939008504152298,0.0038841303903609514,0.1977245807647705,2731797,2143297136,28.600000381469727,69.9000015258789,6.199999809265137,4.800000190734863
4435,100.28024626,2.3983993530273438,-1.2558937072753906,0.004791200626641512,0.003897767048329115,0.19867905974388123,2731780,2143298090,28.5,70,6.400000095367432,4.599999904632568
4434,100.280498445,2.0983963012695312,-1.295213222503662,0.004783394280821085,0.003938221372663975,0.1995869278907776,2731763,2143299042,28.200000762939453,70,6.300000190734863,4.400000095367432
4433,100.28075063,2.1984024047851562,-1.674879550933838,0.004886413924396038,0.0038851099088788033,0.20042748749256134,2731746,2143299994,28.700000762939453,69.5999984741211,6.699999809265137,4.5
4432,100.280987715,1.698394775390625,-1.6919159889221191,0.0047484589740633965,0.0038737517315894365,0.2012673020362854,2731730,2143300889,28.600000381469727,69.19999694824219,6.699999809265137,4.5
4431,100.281238841,1.0983963012695312,-1.794621467590332,0.004745035897940397,0.003871948691084981,0.2021106332540512,2731713,2143301837,28.600000381469727,68.5999984741211,6.599999904632568,4.300000190734863
4430,100.281489436,0.6984024047851562,-1.786674976348877,0.004737070295959711,0.004010580480098724,0.20301438868045807,2731696,2143302783,28.299999237060547,68.5,6.800000190734863,4.300000190734863
4429,100.281739502,0.39839935302734375,-1.7719168663024902,0.004565163049846888,0.004087086301296949,0.20398946106433868,2731679,2143303727,28,68.5,7,4.400000095367432
4428,100.281989037,0.29839324951171875,-1.6521310806274414,0.004565963055938482,0.004166944418102503,0.20485509932041168,2731662,2143304669,28.200000762939453,68.19999694824219,7.099999904632568,4.5
4427,100.282238308,0.49840545654296875,-1.3969082832336426,0.004319240804761648,0.004337094258517027,0.205869659781456,2731645,2143305610,27.700000762939453,68.9000015258789,7.199999809265137,4.599999904632568
4426,100.282501354,0.29839324951171875,-1.1805176734924316,0.004232409875839949,0.004348021000623703,0.20682594180107117,2731627,2143306603,27.700000762939453,68.69999694824219,7.199999809265137,4.800000190734863
4425,100.282748771,0.09839630126953125,-1.0319457054138184,0.004088830668479204,0.004313735757023096,0.2076556384563446,2731610,2143307537,28,68.19999694824219,7.5,5.300000190734863
4424,100.282994863,0.0984039306640625,-0.8865876197814941,0.003985342103987932,0.004410643130540848,0.20852936804294586,2731593,2143308466,27.899999618530273,68.30000305175781,7.800000190734863,5.599999904632568
4423,100.283239365,0.29839324951171875,-0.658632755279541,0.003798778634518385,0.0044292788952589035,0.20930001139640808,2731576,2143309389,28.299999237060547,68.0999984741211,7.800000190734863,5.800000190734863
4422,100.283496848,0.09839630126953125,-0.45707178115844727,0.0035534040071070194,0.004430320113897324,0.21008385717868805,2731558,2143310361,28.299999237060547,67.9000015258789,7.800000190734863,6
4421,100.283737907,0.09839630126953125,-0.3266720771789551,0.003600414376705885,0.004517253488302231,0.21083267033100128,2731541,2143311271,28.299999237060547,67.9000015258789,7.699999809265137,5.900000095367432
4420,100.283990622,0.09839630126953125,0.021062374114990234,0.003488633781671524,0.004549077246338129,0.21158047020435333,2731523,2143312225,28.799999237060547,67.4000015258789,7.5,6
4419,100.284240423,-0.0016021728515625,0.13923931121826172,0.0033697253093123436,0.004761197604238987,0.2122730314731598,2731505,2143313168,28.899999618530273,67.19999694824219,7.599999904632568,5.900000095367432
4418,100.284488104,0.6984024047851562,0.12887334823608398,0.003512038616463542,0.004887621384114027,0.212997704744339,2731487,2143314103,28.899999618530273,67.9000015258789,7.699999809265137,5.800000190734863
4417,100.28474717600001,1.0984039306640625,0.168731689453125,0.003783668391406536,0.004847526550292969,0.21376967430114746,2731468,2143315081,28.899999618530273,68.30000305175781,7.599999904632568,5.800000190734863
4416,100.284989295,1.1984024047851562,0.5677990913391113,0.003969247918576002,0.004713569302111864,0.2144855558872223,2731450,2143315995,29.200000762939453,68.0999984741211,7.5,6.300000190734863
4415,100.285242274,1.3983993530273438,0.8483271598815918,0.0039022467099130154,0.0046339211985468864,0.21531955897808075,2731431,2143316950,29.200000762939453,68.30000305175781,7.300000190734863,6.5
4414,100.28549233999999,1.3983993530273438,1.4237046241760254,0.003824174404144287,0.00441750418394804,0.2162095159292221,2731412,2143317894,29.200000762939453,68.30000305175781,6.800000190734863,6.900000095367432
4413,100.28573949199999,1.9984054565429688,1.6420645713806152,0.004092086106538773,0.004229742102324963,0.2170008271932602,2731393,2143318827,29.700000762939453,68.4000015258789,6.5,7.099999904632568
4412,100.28599671,2.3983993530273438,1.6038951873779297,0.004350512754172087,0.004270962905138731,0.21778158843517303,2731373,2143319798,30.100000381469727,68.4000015258789,6.400000095367432,6.900000095367432
4411,100.286251279,2.4983978271484375,1.4447684288024902,0.004501833114773035,0.004431546200066805,0.21863505244255066,2731353,2143320759,30.100000381469727,68.5,6.800000190734863,6.900000095367432
4410,100.286489953,2.5984039306640625,1.0946779251098633,0.004426821134984493,0.004398152697831392,0.21919946372509003,2731334,2143321660,30.899999618530273,67.80000305175781,7.400000095367432,7.199999809265137
4409,100.28675035,2.1984024047851562,0.7937278747558594,0.004319262225180864,0.004397519398480654,0.21994180977344513,2731313,2143322643,31.200000762939453,67.0999984741211,7.900000095367432,7.400000095367432
4408,100.28699511800001,1.5983963012695312,0.5498480796813965,0.004181259777396917,0.004368265625089407,0.22057965397834778,2731293,2143323567,31,66.69999694824219,8.399999618530273,7.699999809265137
4407,100.287248362,0.8983993530273438,0.39032793045043945,0.004184005782008171,0.00426191883161664,0.22118732333183289,2731272,2143324523,30.600000381469727,66.4000015258789,8.600000381469727,7.900000095367432
4406,100.287498163,0.19840240478515625,0.10751199722290039,0.003911118488758802,0.004073372110724449,0.22173643112182617,2731251,2143325466,30.700000762939453,65.5999984741211,8.699999809265137,8
4405,100.28774451999999,-0.30159759521484375,-0.19537782669067383,0.003863933263346553,0.004004778806120157,0.22233134508132935,2731230,2143326396,30.700000762939453,65.0999984741211,8.699999809265137,7.800000190734863
4404,100.287998029,-0.801605224609375,-0.4779391288757324,0.003917116671800613,0.0038830700796097517,0.2229529321193695,2731208,2143327353,30.600000381469727,64.69999694824219,8.800000190734863,7.800000190734863
4403,100.288248095,-1.3015975952148438,-0.7703490257263184,0.0038528237491846085,0.003821463091298938,0.22367611527442932,2731186,2143328297,30.200000762939453,64.5999984741211,9,7.800000190734863
4402,100.288494187,-1.6016006469726562,-0.9626269340515137,0.003967418801039457,0.003959945868700743,0.224635511636734,2731164,2143329226,29.399999618530273,65.0999984741211,9,7.400000095367432
4401,100.28874716600001,-1.70159912109375,-1.2811779975891113,0.0035465687979012728,0.004080912563949823,0.22546769678592682,2731141,2143330181,29,65.4000015258789,9.199999809265137,7.099999904632568
4400,100.288995908,-1.8015975952148438,-1.3867201805114746,0.003404300892725587,0.0040772175416350365,0.22630490362644196,2731118,2143331120,29,65.30000305175781,9.100000381469727,6.900000095367432
4399,100.28925074099999,-0.0381585955619812,-2.323009967803955,0.0037503668572753668,0.004186358768492937,0.22723780572414398,2731094,2143332082,28.600000381469727,-152.8000030517578,9.100000381469727,5.800000190734863
4398,100.28950080700001,-0.1819215565919876,-2.2806477546691895,0.0036852662451565266,0.0044146026484668255,0.22817158699035645,2731070,2143333026,28,-144.60000610351562,9.100000381469727,5.5
4397,100.289746104,-0.32788753509521484,-2.5030455589294434,0.0035971568431705236,0.004533004947006702,0.22899624705314636,2731046,2143333952,222.60000610351562,66.0999984741211,10.300000190734863,6.300000190734863
4396,100.28999643499999,-0.4759805202484131,-2.66746187210083,0.003299091476947069,0.004490060266107321,0.22961710393428802,2731021,2143334897,28.200000762939453,-131.8000030517578,9,4.900000095367432
4395,100.290251269,-0.6259995102882385,-4.195960521697998,0.0034441682510077953,0.004471061285585165,0.23046766221523285,2730995,2143335859,205.8000030517578,-124.9000015258789,10.5,4.900000095367432
4394,100.29050001,-0.7780154943466187,-3.051093578338623,0.0036665245424956083,0.004500973038375378,0.23130252957344055,2730969,2143336798,28.600000381469727,-118.80000305175781,9.100000381469727,4.599999904632568
4393,100.290743453,-0.8316332697868347,-3.0704903602600098,0.0036466363817453384,0.00442137336358428,0.2322268784046173,2730943,2143337717,28.399999618530273,-113.69999694824219,9.199999809265137,4.800000190734863
4392,100.290999081,-0.9038812518119812,-3.0826306343078613,0.0033120419830083847,0.004413280636072159,0.23304522037506104,2730915,2143338682,28.600000381469727,-107.69999694824219,9,4.599999904632568
4391,100.291248087,-1.0790828466415405,-3.3089003562927246,0.003204685403034091,0.004462434444576502,0.23397381603717804,2730887,2143339622,28.700000762939453,-102.4000015258789,9.100000381469727,4.400000095367432
4390,100.29149921300001,-1.2488844394683838,-3.219362735748291,0.0032126079313457012,0.004722129553556442,0.23473529517650604,2730858,2143340570,28.899999618530273,-98.30000305175781,9.300000190734863,4.300000190734863
4389,100.291751132,-1.4143860340118408,-4.839574337005615,0.0034825867041945457,0.004775321576744318,0.23551099002361298,2730828,2143341521,157.1999969482422,-94.0999984741211,10.5,3.799999952316284
4388,100.291995635,-1.7444020509719849,-3.585663318634033,0.0032038590870797634,0.004744595382362604,0.23620837926864624,2730798,2143342444,29.299999237060547,-90.4000015258789,9,3.5999999046325684
4387,100.292248085,-1.9016036987304688,-0.7146115303039551,0.0030920924618840218,0.004725296515971422,0.23695048689842224,2730766,2143343397,29.200000762939453,65,8.5,6
4386,100.29249920999999,-0.1259232759475708,-3.5138583183288574,0.002818852197378874,0.004592463839799166,0.2376599907875061,2730733,2143344345,29.200000762939453,-82.80000305175781,8.100000381469727,3
4385,100.292748481,0.023778319358825684,-3.5494980812072754,0.0030697172041982412,0.004435368813574314,0.23840990662574768,2730699,2143345286,29.5,-80.19999694824219,7.699999809265137,2.799999952316284
4384,100.29300119599999,0.1705799251794815,-5.867924213409424,0.0028811416123062372,0.004489751532673836,0.23987577855587006,2730663,2143346240,122.5999984741211,-75.4000015258789,9.699999809265137,2.4000000953674316
4383,100.29324914200001,0.6595959663391113,-4.460765361785889,0.0029592954088002443,0.0045611923560500145,0.24048294126987457,2730626,2143347176,28.100000381469727,-72.0999984741211,8.100000381469727,2.0999999046325684
4382,100.293497883,0.7996975779533386,-4.9285054206848145,0.002895308891311288,0.004382697399705648,0.24156902730464935,2730587,2143348115,28.399999618530273,-68.80000305175781,8.100000381469727,1.899999976158142
4381,100.293750598,0.9361991882324219,-5.027249813079834,0.0030723256058990955,0.004516868852078915,0.24277940392494202,2730545,2143349069,28.799999237060547,-65.30000305175781,8,1.5
4380,100.293998544,1.0688008069992065,-4.7107696533203125,0.003267006017267704,0.004394520539790392,0.24352045357227325,2730501,2143350005,29.799999237060547,-63.29999923706055,7.599999904632568,1.600000023841858
4379,100.294249669,1.1984024047851562,-0.1637425422668457,0.0033215146977454424,0.004425872582942247,0.24546204507350922,2730453,2143350953,27.399999618530273,69.9000015258789,7.5,6
4378,100.29449894000001,0.14889614284038544,-2.58907413482666,0.0034748981706798077,0.004275650251656771,0.2467295080423355,2730401,2143351894,26.799999237060547,-56.5,6.900000095367432,3.200000047683716
4377,100.294749006,0.27469775080680847,-3.2864465713500977,0.0036216597072780132,0.004210734739899635,0.2477399855852127,2730343,2143352838,26.5,-54.099998474121094,6.400000095367432,2.0999999046325684
4376,100.294998277,0.39839935302734375,-0.019115924835205078,0.003810895374044776,0.003988953307271004,0.2487238347530365,2730277,2143353779,26.899999618530273,69.5999984741211,6,5.300000190734863
4375,100.295249932,-2.301605224609375,-0.13293743133544922,0.004155442584306002,0.004113073460757732,0.2496989220380783,2730197,2143354729,24.100000381469727,69.69999694824219,5.599999904632568,4.599999904632568
4374,100.295501587,-0.10160064697265625,-3.7255899906158447,0.004434444010257721,0.004120874684303999,0.2505892217159271,2730093,2143355679,27,69,12.5,4.300000190734863
4373,100.29575059300001,-1.5016021728515625,-4.457713603973389,0.00497922208160162,0.004296557046473026,0.25130751729011536,2729950,2143356619,26.5,68.0999984741211,9.100000381469727,3.5
4372,100.295999864,-0.6016006469726562,-2.272113800048828,0.005193695891648531,0.004420291632413864,0.25219017267227173,2729806,2143357560,26.899999618530273,68.5999984741211,7.599999904632568,4
4371,100.296250194,-0.40160369873046875,-1.5047345161437988,0.0052739097736775875,0.004465211648494005,0.25279974937438965,2729688,2143358505,28.100000381469727,67.5999984741211,6.800000190734863,3.9000000953674316
